#K-Path          Energy     s     py     pz     px    dxy    dyz    dz2    dxz  x2-y2    tot
# NKPTS & NBANDS: 120  16
# Band-Index    1
   0.00000    -15.798334  0.283  0.013  0.000  0.039  0.000  0.000  0.000  0.000  0.000  0.336
   0.06664    -15.720254  0.282  0.017  0.000  0.037  0.000  0.000  0.000  0.000  0.000  0.336
   0.13328    -15.619116  0.280  0.021  0.000  0.035  0.000  0.000  0.000  0.000  0.000  0.337
   0.19993    -15.495057  0.279  0.026  0.000  0.033  0.000  0.000  0.000  0.000  0.000  0.337
   0.26657    -15.348271  0.277  0.030  0.000  0.031  0.000  0.000  0.000  0.000  0.000  0.338
   0.33321    -15.178987  0.274  0.036  0.000  0.030  0.000  0.000  0.000  0.000  0.000  0.339
   0.39985    -14.987508  0.272  0.041  0.000  0.028  0.000  0.000  0.000  0.000  0.000  0.340
   0.46649    -14.774217  0.269  0.047  0.000  0.026  0.000  0.000  0.000  0.000  0.000  0.342
   0.53314    -14.539526  0.266  0.053  0.000  0.024  0.000  0.000  0.000  0.000  0.000  0.343
   0.59978    -14.284121  0.263  0.059  0.000  0.023  0.000  0.000  0.000  0.000  0.000  0.345
   0.66642    -14.008863  0.260  0.066  0.000  0.022  0.000  0.000  0.000  0.000  0.000  0.347
   0.73306    -13.715210  0.257  0.071  0.000  0.020  0.000  0.000  0.000  0.000  0.000  0.349
   0.79970    -13.405761  0.255  0.077  0.000  0.020  0.000  0.000  0.000  0.000  0.000  0.351
   0.86634    -13.086155  0.255  0.080  0.000  0.019  0.000  0.000  0.000  0.000  0.000  0.354
   0.93299    -12.772345  0.259  0.079  0.000  0.020  0.000  0.000  0.000  0.000  0.000  0.358
   0.99963    -12.525765  0.273  0.068  0.000  0.022  0.000  0.000  0.000  0.000  0.000  0.364
   1.06627    -12.547417  0.277  0.066  0.000  0.021  0.000  0.000  0.000  0.000  0.000  0.364
   1.13291    -12.872816  0.264  0.078  0.000  0.016  0.000  0.000  0.000  0.000  0.000  0.358
   1.19955    -13.290742  0.259  0.081  0.000  0.013  0.000  0.000  0.000  0.000  0.000  0.353
   1.26620    -13.723679  0.260  0.078  0.000  0.011  0.000  0.000  0.000  0.000  0.000  0.349
   1.33284    -14.151249  0.263  0.073  0.000  0.010  0.000  0.000  0.000  0.000  0.000  0.346
   1.39948    -14.566039  0.267  0.068  0.000  0.009  0.000  0.000  0.000  0.000  0.000  0.343
   1.46612    -14.964464  0.271  0.062  0.000  0.008  0.000  0.000  0.000  0.000  0.000  0.341
   1.53276    -15.344448  0.276  0.055  0.000  0.007  0.000  0.000  0.000  0.000  0.000  0.338
   1.59941    -15.704689  0.281  0.049  0.000  0.006  0.000  0.000  0.000  0.000  0.000  0.336
   1.66605    -16.044175  0.286  0.043  0.000  0.005  0.000  0.000  0.000  0.000  0.000  0.334
   1.73269    -16.362203  0.290  0.038  0.000  0.005  0.000  0.000  0.000  0.000  0.000  0.333
   1.79933    -16.658207  0.295  0.032  0.000  0.004  0.000  0.000  0.000  0.000  0.000  0.331
   1.86597    -16.931770  0.299  0.027  0.000  0.003  0.000  0.000  0.000  0.000  0.000  0.329
   1.93261    -17.182497  0.303  0.023  0.000  0.003  0.000  0.000  0.000  0.000  0.000  0.328
   1.99926    -17.410063  0.306  0.018  0.000  0.002  0.000  0.000  0.000  0.000  0.000  0.327
   2.06590    -17.614273  0.309  0.015  0.000  0.002  0.000  0.000  0.000  0.000  0.000  0.326
   2.13254    -17.794873  0.312  0.011  0.000  0.001  0.000  0.000  0.000  0.000  0.000  0.325
   2.19918    -17.951694  0.315  0.008  0.000  0.001  0.000  0.000  0.000  0.000  0.000  0.324
   2.26582    -18.084610  0.317  0.006  0.000  0.001  0.000  0.000  0.000  0.000  0.000  0.323
   2.33247    -18.193521  0.319  0.004  0.000  0.000  0.000  0.000  0.000  0.000  0.000  0.323
   2.39911    -18.278319  0.320  0.002  0.000  0.000  0.000  0.000  0.000  0.000  0.000  0.322
   2.46575    -18.338942  0.321  0.001  0.000  0.000  0.000  0.000  0.000  0.000  0.000  0.322
   2.53239    -18.375329  0.321  0.000  0.000  0.000  0.000  0.000  0.000  0.000  0.000  0.322
   2.59903    -18.387459  0.322  0.000  0.000  0.000  0.000  0.000  0.000  0.000  0.000  0.322
   2.59903    -18.387459  0.322  0.000  0.000  0.000  0.000  0.000  0.000  0.000  0.000  0.322
   2.63672    -18.383585  0.322  0.000  0.000  0.000  0.000  0.000  0.000  0.000  0.000  0.322
   2.67441    -18.371937  0.321  0.000  0.000  0.000  0.000  0.000  0.000  0.000  0.000  0.322
   2.71210    -18.352548  0.321  0.000  0.000  0.001  0.000  0.000  0.000  0.000  0.000  0.322
   2.74979    -18.325396  0.321  0.000  0.000  0.001  0.000  0.000  0.000  0.000  0.000  0.322
   2.78748    -18.290512  0.320  0.001  0.000  0.002  0.000  0.000  0.000  0.000  0.000  0.322
   2.82517    -18.247876  0.319  0.001  0.000  0.002  0.000  0.000  0.000  0.000  0.000  0.322
   2.86286    -18.197518  0.319  0.001  0.000  0.003  0.000  0.000  0.000  0.000  0.000  0.323
   2.90054    -18.139453  0.318  0.001  0.000  0.004  0.000  0.000  0.000  0.000  0.000  0.323
   2.93823    -18.073689  0.317  0.002  0.000  0.005  0.000  0.000  0.000  0.000  0.000  0.323
   2.97592    -18.000250  0.315  0.002  0.000  0.006  0.000  0.000  0.000  0.000  0.000  0.324
   3.01361    -17.919149  0.314  0.002  0.000  0.007  0.000  0.000  0.000  0.000  0.000  0.324
   3.05130    -17.830414  0.313  0.003  0.000  0.009  0.000  0.000  0.000  0.000  0.000  0.325
   3.08899    -17.734050  0.311  0.003  0.000  0.010  0.000  0.000  0.000  0.000  0.000  0.325
   3.12668    -17.630105  0.310  0.004  0.000  0.012  0.000  0.000  0.000  0.000  0.000  0.326
   3.16437    -17.518610  0.308  0.005  0.000  0.014  0.000  0.000  0.000  0.000  0.000  0.326
   3.20206    -17.399609  0.306  0.005  0.000  0.016  0.000  0.000  0.000  0.000  0.000  0.327
   3.23974    -17.273127  0.304  0.006  0.000  0.018  0.000  0.000  0.000  0.000  0.000  0.328
   3.27743    -17.139189  0.302  0.007  0.000  0.020  0.000  0.000  0.000  0.000  0.000  0.328
   3.31512    -16.997897  0.300  0.007  0.000  0.022  0.000  0.000  0.000  0.000  0.000  0.329
   3.35281    -16.849247  0.298  0.008  0.000  0.024  0.000  0.000  0.000  0.000  0.000  0.330
   3.39050    -16.693320  0.296  0.009  0.000  0.026  0.000  0.000  0.000  0.000  0.000  0.331
   3.42819    -16.530194  0.293  0.010  0.000  0.029  0.000  0.000  0.000  0.000  0.000  0.332
   3.46588    -16.359934  0.291  0.011  0.000  0.031  0.000  0.000  0.000  0.000  0.000  0.333
   3.50357    -16.182645  0.288  0.011  0.000  0.034  0.000  0.000  0.000  0.000  0.000  0.334
   3.54126    -15.998411  0.286  0.012  0.000  0.037  0.000  0.000  0.000  0.000  0.000  0.335
   3.57894    -15.807371  0.283  0.013  0.000  0.039  0.000  0.000  0.000  0.000  0.000  0.336
   3.61663    -15.609687  0.281  0.014  0.000  0.042  0.000  0.000  0.000  0.000  0.000  0.337
   3.65432    -15.405521  0.278  0.015  0.000  0.045  0.000  0.000  0.000  0.000  0.000  0.338
   3.69201    -15.195099  0.276  0.016  0.000  0.048  0.000  0.000  0.000  0.000  0.000  0.339
   3.72970    -14.978741  0.273  0.017  0.000  0.050  0.000  0.000  0.000  0.000  0.000  0.341
   3.76739    -14.756887  0.271  0.018  0.000  0.053  0.000  0.000  0.000  0.000  0.000  0.342
   3.80508    -14.530149  0.270  0.019  0.000  0.055  0.000  0.000  0.000  0.000  0.000  0.344
   3.84277    -14.299488  0.269  0.019  0.000  0.058  0.000  0.000  0.000  0.000  0.000  0.346
   3.88046    -14.066499  0.269  0.020  0.000  0.059  0.000  0.000  0.000  0.000  0.000  0.348
   3.91814    -13.833985  0.270  0.020  0.000  0.060  0.000  0.000  0.000  0.000  0.000  0.350
   3.95583    -13.607372  0.274  0.020  0.000  0.059  0.000  0.000  0.000  0.000  0.000  0.353
   3.99352    -13.398622  0.281  0.019  0.000  0.056  0.000  0.000  0.000  0.000  0.000  0.357
   4.03121    -13.234992  0.293  0.017  0.000  0.051  0.000  0.000  0.000  0.000  0.000  0.361
   4.06890    -13.168280  0.300  0.016  0.000  0.047  0.000  0.000  0.000  0.000  0.000  0.363
   4.06890    -13.168280  0.300  0.016  0.000  0.047  0.000  0.000  0.000  0.000  0.000  0.363
   4.11436    -13.171801  0.299  0.016  0.000  0.048  0.000  0.000  0.000  0.000  0.000  0.363
   4.15983    -13.181589  0.296  0.015  0.000  0.051  0.000  0.000  0.000  0.000  0.000  0.362
   4.20529    -13.195621  0.291  0.015  0.000  0.055  0.000  0.000  0.000  0.000  0.000  0.361
   4.25075    -13.211330  0.287  0.014  0.000  0.060  0.000  0.000  0.000  0.000  0.000  0.360
   4.29622    -13.226214  0.282  0.012  0.000  0.064  0.000  0.000  0.000  0.000  0.000  0.359
   4.34168    -13.238099  0.277  0.011  0.000  0.069  0.000  0.000  0.000  0.000  0.000  0.358
   4.38714    -13.245264  0.273  0.010  0.000  0.073  0.000  0.000  0.000  0.000  0.000  0.357
   4.43261    -13.246394  0.270  0.009  0.000  0.077  0.000  0.000  0.000  0.000  0.000  0.356
   4.47807    -13.240552  0.266  0.008  0.000  0.081  0.000  0.000  0.000  0.000  0.000  0.355
   4.52354    -13.227041  0.263  0.007  0.000  0.084  0.000  0.000  0.000  0.000  0.000  0.355
   4.56900    -13.205338  0.261  0.007  0.000  0.087  0.000  0.000  0.000  0.000  0.000  0.355
   4.61446    -13.175110  0.258  0.006  0.000  0.090  0.000  0.000  0.000  0.000  0.000  0.354
   4.65993    -13.136181  0.256  0.006  0.000  0.092  0.000  0.000  0.000  0.000  0.000  0.354
   4.70539    -13.088498  0.255  0.006  0.000  0.094  0.000  0.000  0.000  0.000  0.000  0.355
   4.75085    -13.032182  0.253  0.006  0.000  0.096  0.000  0.000  0.000  0.000  0.000  0.355
   4.79632    -12.967520  0.252  0.006  0.000  0.097  0.000  0.000  0.000  0.000  0.000  0.355
   4.84178    -12.895105  0.252  0.007  0.000  0.097  0.000  0.000  0.000  0.000  0.000  0.356
   4.88724    -12.816009  0.252  0.008  0.000  0.097  0.000  0.000  0.000  0.000  0.000  0.357
   4.93271    -12.732180  0.253  0.009  0.000  0.096  0.000  0.000  0.000  0.000  0.000  0.358
   4.97817    -12.647277  0.256  0.011  0.000  0.093  0.000  0.000  0.000  0.000  0.000  0.359
   5.02363    -12.568730  0.261  0.014  0.000  0.086  0.000  0.000  0.000  0.000  0.000  0.361
   5.06910    -12.511928  0.270  0.019  0.000  0.075  0.000  0.000  0.000  0.000  0.000  0.364
   5.11456    -12.506246  0.279  0.028  0.000  0.059  0.000  0.000  0.000  0.000  0.000  0.366
   5.16002    -12.585512  0.281  0.039  0.000  0.046  0.000  0.000  0.000  0.000  0.000  0.365
   5.20549    -12.749208  0.275  0.046  0.000  0.041  0.000  0.000  0.000  0.000  0.000  0.362
   5.25095    -12.964280  0.269  0.048  0.000  0.041  0.000  0.000  0.000  0.000  0.000  0.358
   5.29641    -13.202770  0.265  0.048  0.000  0.042  0.000  0.000  0.000  0.000  0.000  0.355
   5.34188    -13.449759  0.264  0.046  0.000  0.043  0.000  0.000  0.000  0.000  0.000  0.352
   5.38734    -13.697735  0.263  0.043  0.000  0.043  0.000  0.000  0.000  0.000  0.000  0.350
   5.43280    -13.942692  0.264  0.040  0.000  0.044  0.000  0.000  0.000  0.000  0.000  0.348
   5.47827    -14.182325  0.265  0.037  0.000  0.044  0.000  0.000  0.000  0.000  0.000  0.346
   5.52373    -14.415175  0.267  0.034  0.000  0.044  0.000  0.000  0.000  0.000  0.000  0.344
   5.56920    -14.640223  0.269  0.030  0.000  0.043  0.000  0.000  0.000  0.000  0.000  0.343
   5.61466    -14.856829  0.271  0.027  0.000  0.043  0.000  0.000  0.000  0.000  0.000  0.341
   5.66012    -15.064458  0.274  0.024  0.000  0.042  0.000  0.000  0.000  0.000  0.000  0.340
   5.70559    -15.262696  0.276  0.021  0.000  0.042  0.000  0.000  0.000  0.000  0.000  0.339
   5.75105    -15.451261  0.278  0.018  0.000  0.041  0.000  0.000  0.000  0.000  0.000  0.338
   5.79651    -15.629875  0.281  0.016  0.000  0.040  0.000  0.000  0.000  0.000  0.000  0.337
   5.84198    -15.798334  0.283  0.013  0.000  0.039  0.000  0.000  0.000  0.000  0.000  0.336
 
# Band-Index    2
   5.84198     -8.484460  0.136  0.058  0.000  0.171  0.000  0.000  0.000  0.000  0.000  0.366
   5.79651     -8.763693  0.141  0.055  0.000  0.169  0.000  0.000  0.000  0.000  0.000  0.364
   5.75105     -9.037360  0.145  0.052  0.000  0.166  0.000  0.000  0.000  0.000  0.000  0.363
   5.70559     -9.304559  0.149  0.048  0.000  0.164  0.000  0.000  0.000  0.000  0.000  0.362
   5.66012     -9.564523  0.153  0.045  0.000  0.162  0.000  0.000  0.000  0.000  0.000  0.360
   5.61466     -9.816434  0.157  0.042  0.000  0.160  0.000  0.000  0.000  0.000  0.000  0.359
   5.56920    -10.059662  0.160  0.039  0.000  0.159  0.000  0.000  0.000  0.000  0.000  0.358
   5.52373    -10.293495  0.163  0.036  0.000  0.157  0.000  0.000  0.000  0.000  0.000  0.357
   5.47827    -10.517074  0.165  0.034  0.000  0.156  0.000  0.000  0.000  0.000  0.000  0.355
   5.43280    -10.729494  0.167  0.031  0.000  0.155  0.000  0.000  0.000  0.000  0.000  0.354
   5.38734    -10.929382  0.169  0.030  0.000  0.154  0.000  0.000  0.000  0.000  0.000  0.353
   5.34188    -11.114586  0.169  0.028  0.000  0.154  0.000  0.000  0.000  0.000  0.000  0.351
   5.29641    -11.281553  0.167  0.028  0.000  0.154  0.000  0.000  0.000  0.000  0.000  0.349
   5.25095    -11.423377  0.164  0.029  0.000  0.155  0.000  0.000  0.000  0.000  0.000  0.347
   5.20549    -11.525924  0.159  0.033  0.000  0.154  0.000  0.000  0.000  0.000  0.000  0.345
   5.16002    -11.562401  0.155  0.041  0.000  0.148  0.000  0.000  0.000  0.000  0.000  0.344
   5.11456    -11.501483  0.158  0.053  0.000  0.134  0.000  0.000  0.000  0.000  0.000  0.345
   5.06910    -11.345244  0.170  0.063  0.000  0.117  0.000  0.000  0.000  0.000  0.000  0.350
   5.02363    -11.131743  0.182  0.068  0.000  0.106  0.000  0.000  0.000  0.000  0.000  0.355
   4.97817    -10.897555  0.193  0.069  0.000  0.099  0.000  0.000  0.000  0.000  0.000  0.361
   4.93271    -10.670452  0.203  0.067  0.000  0.096  0.000  0.000  0.000  0.000  0.000  0.366
   4.88724    -10.478646  0.213  0.062  0.000  0.096  0.000  0.000  0.000  0.000  0.000  0.371
   4.84178    -10.355162  0.218  0.059  0.000  0.097  0.000  0.000  0.000  0.000  0.000  0.374
   4.79632    -10.323825  0.214  0.060  0.000  0.099  0.000  0.000  0.000  0.000  0.000  0.373
   4.75085    -10.377790  0.204  0.064  0.000  0.101  0.000  0.000  0.000  0.000  0.000  0.369
   4.70539    -10.488665  0.193  0.069  0.000  0.103  0.000  0.000  0.000  0.000  0.000  0.365
   4.65993    -10.630400  0.184  0.071  0.000  0.105  0.000  0.000  0.000  0.000  0.000  0.361
   4.61446    -10.786521  0.178  0.072  0.000  0.107  0.000  0.000  0.000  0.000  0.000  0.357
   4.56900    -10.947479  0.173  0.071  0.000  0.109  0.000  0.000  0.000  0.000  0.000  0.354
   4.52354    -11.107570  0.170  0.069  0.000  0.112  0.000  0.000  0.000  0.000  0.000  0.351
   4.47807    -11.263231  0.166  0.067  0.000  0.115  0.000  0.000  0.000  0.000  0.000  0.348
   4.43261    -11.411802  0.163  0.064  0.000  0.118  0.000  0.000  0.000  0.000  0.000  0.346
   4.38714    -11.551254  0.160  0.062  0.000  0.122  0.000  0.000  0.000  0.000  0.000  0.344
   4.34168    -11.679600  0.157  0.059  0.000  0.126  0.000  0.000  0.000  0.000  0.000  0.342
   4.29622    -11.794904  0.153  0.056  0.000  0.130  0.000  0.000  0.000  0.000  0.000  0.340
   4.25075    -11.894907  0.149  0.054  0.000  0.135  0.000  0.000  0.000  0.000  0.000  0.338
   4.20529    -11.977211  0.145  0.052  0.000  0.139  0.000  0.000  0.000  0.000  0.000  0.336
   4.15983    -12.038914  0.141  0.050  0.000  0.143  0.000  0.000  0.000  0.000  0.000  0.334
   4.11436    -12.077308  0.138  0.049  0.000  0.146  0.000  0.000  0.000  0.000  0.000  0.333
   4.06890    -12.090399  0.137  0.049  0.000  0.147  0.000  0.000  0.000  0.000  0.000  0.333
   4.06890    -12.090399  0.137  0.049  0.000  0.147  0.000  0.000  0.000  0.000  0.000  0.333
   4.03121    -12.017991  0.144  0.048  0.000  0.143  0.000  0.000  0.000  0.000  0.000  0.335
   3.99352    -11.837075  0.155  0.046  0.000  0.138  0.000  0.000  0.000  0.000  0.000  0.340
   3.95583    -11.599460  0.162  0.045  0.000  0.136  0.000  0.000  0.000  0.000  0.000  0.343
   3.91814    -11.332483  0.165  0.045  0.000  0.136  0.000  0.000  0.000  0.000  0.000  0.346
   3.88046    -11.048190  0.165  0.046  0.000  0.138  0.000  0.000  0.000  0.000  0.000  0.349
   3.84277    -10.752110  0.164  0.047  0.000  0.140  0.000  0.000  0.000  0.000  0.000  0.351
   3.80508    -10.447238  0.162  0.048  0.000  0.144  0.000  0.000  0.000  0.000  0.000  0.354
   3.76739    -10.135320  0.159  0.049  0.000  0.148  0.000  0.000  0.000  0.000  0.000  0.356
   3.72970     -9.817460  0.155  0.051  0.000  0.152  0.000  0.000  0.000  0.000  0.000  0.358
   3.69201     -9.494601  0.151  0.052  0.000  0.157  0.000  0.000  0.000  0.000  0.000  0.360
   3.65432     -9.167355  0.146  0.054  0.000  0.161  0.000  0.000  0.000  0.000  0.000  0.361
   3.61663     -8.836414  0.141  0.056  0.000  0.166  0.000  0.000  0.000  0.000  0.000  0.363
   3.57894     -8.502284  0.136  0.057  0.000  0.172  0.000  0.000  0.000  0.000  0.000  0.365
   3.54126     -8.165599  0.131  0.059  0.000  0.177  0.000  0.000  0.000  0.000  0.000  0.367
   3.50357     -7.826989  0.125  0.061  0.000  0.183  0.000  0.000  0.000  0.000  0.000  0.369
   3.46588     -7.486956  0.120  0.063  0.000  0.188  0.000  0.000  0.000  0.000  0.000  0.371
   3.42819     -7.146265  0.114  0.065  0.000  0.194  0.000  0.000  0.000  0.000  0.000  0.373
   3.39050     -6.805600  0.108  0.067  0.000  0.200  0.000  0.000  0.000  0.000  0.000  0.375
   3.35281     -6.465716  0.102  0.069  0.000  0.206  0.000  0.000  0.000  0.000  0.000  0.377
   3.31512     -6.127467  0.096  0.071  0.000  0.212  0.000  0.000  0.000  0.000  0.000  0.379
   3.27743     -5.791775  0.089  0.073  0.000  0.218  0.000  0.000  0.000  0.000  0.000  0.381
   3.23974     -5.459642  0.083  0.075  0.000  0.225  0.000  0.000  0.000  0.000  0.000  0.383
   3.20206     -5.316117  0.000  0.000  0.220  0.000  0.000  0.000  0.000  0.000  0.000  0.220
   3.16437     -5.455858  0.000  0.000  0.219  0.000  0.000  0.000  0.000  0.000  0.000  0.219
   3.12668     -5.587118  0.000  0.000  0.219  0.000  0.000  0.000  0.000  0.000  0.000  0.219
   3.08899     -5.709771  0.000  0.000  0.218  0.000  0.000  0.000  0.000  0.000  0.000  0.218
   3.05130     -5.823720  0.000  0.000  0.218  0.000  0.000  0.000  0.000  0.000  0.000  0.218
   3.01361     -5.928833  0.000  0.000  0.218  0.000  0.000  0.000  0.000  0.000  0.000  0.218
   2.97592     -6.025044  0.000  0.000  0.217  0.000  0.000  0.000  0.000  0.000  0.000  0.217
   2.93823     -6.112290  0.000  0.000  0.217  0.000  0.000  0.000  0.000  0.000  0.000  0.217
   2.90054     -6.190505  0.000  0.000  0.217  0.000  0.000  0.000  0.000  0.000  0.000  0.217
   2.86286     -6.259631  0.000  0.000  0.216  0.000  0.000  0.000  0.000  0.000  0.000  0.216
   2.82517     -6.319634  0.000  0.000  0.216  0.000  0.000  0.000  0.000  0.000  0.000  0.216
   2.78748     -6.370469  0.000  0.000  0.216  0.000  0.000  0.000  0.000  0.000  0.000  0.216
   2.74979     -6.412098  0.000  0.000  0.216  0.000  0.000  0.000  0.000  0.000  0.000  0.216
   2.71210     -6.444504  0.000  0.000  0.216  0.000  0.000  0.000  0.000  0.000  0.000  0.216
   2.67441     -6.467660  0.000  0.000  0.216  0.000  0.000  0.000  0.000  0.000  0.000  0.216
   2.63672     -6.481567  0.000  0.000  0.216  0.000  0.000  0.000  0.000  0.000  0.000  0.216
   2.59903     -6.486196  0.000  0.000  0.216  0.000  0.000  0.000  0.000  0.000  0.000  0.216
   2.59903     -6.486196  0.000  0.000  0.216  0.000  0.000  0.000  0.000  0.000  0.000  0.216
   2.53239     -6.471699  0.000  0.000  0.216  0.000  0.000  0.000  0.000  0.000  0.000  0.216
   2.46575     -6.428229  0.000  0.000  0.216  0.000  0.000  0.000  0.000  0.000  0.000  0.216
   2.39911     -6.355862  0.000  0.000  0.216  0.000  0.000  0.000  0.000  0.000  0.000  0.216
   2.33247     -6.254740  0.000  0.000  0.216  0.000  0.000  0.000  0.000  0.000  0.000  0.216
   2.26582     -6.125052  0.000  0.000  0.217  0.000  0.000  0.000  0.000  0.000  0.000  0.217
   2.19918     -5.967063  0.000  0.000  0.217  0.000  0.000  0.000  0.000  0.000  0.000  0.217
   2.13254     -5.781104  0.000  0.000  0.218  0.000  0.000  0.000  0.000  0.000  0.000  0.218
