#K-Path          Energy     s     py     pz     px    dxy    dyz    dz2    dxz  x2-y2    tot
# NKPTS & NBANDS: 120  16
# Band-Index    1
   0.00000    -19.513560  0.644  0.000  0.000  0.000  0.000  0.000  0.000  0.000  0.000  0.644
   0.03769    -19.509686  0.644  0.000  0.000  0.000  0.000  0.000  0.000  0.000  0.000  0.644
   0.07538    -19.498038  0.642  0.000  0.000  0.000  0.000  0.000  0.000  0.000  0.000  0.644
   0.11307    -19.478649  0.642  0.000  0.000  0.002  0.000  0.000  0.000  0.000  0.000  0.644
   0.15076    -19.451497  0.642  0.000  0.000  0.002  0.000  0.000  0.000  0.000  0.000  0.644
   0.18844    -19.416612  0.640  0.002  0.000  0.004  0.000  0.000  0.000  0.000  0.000  0.644
   0.22613    -19.373977  0.638  0.002  0.000  0.004  0.000  0.000  0.000  0.000  0.000  0.644
   0.26382    -19.323618  0.638  0.002  0.000  0.006  0.000  0.000  0.000  0.000  0.000  0.646
   0.30151    -19.265554  0.636  0.002  0.000  0.008  0.000  0.000  0.000  0.000  0.000  0.646
   0.33920    -19.199790  0.634  0.004  0.000  0.010  0.000  0.000  0.000  0.000  0.000  0.646
   0.37689    -19.126350  0.630  0.004  0.000  0.012  0.000  0.000  0.000  0.000  0.000  0.648
   0.41458    -19.045250  0.628  0.004  0.000  0.014  0.000  0.000  0.000  0.000  0.000  0.648
   0.45227    -18.956515  0.626  0.006  0.000  0.018  0.000  0.000  0.000  0.000  0.000  0.650
   0.48996    -18.860151  0.622  0.006  0.000  0.020  0.000  0.000  0.000  0.000  0.000  0.650
   0.52764    -18.756206  0.620  0.008  0.000  0.024  0.000  0.000  0.000  0.000  0.000  0.652
   0.56533    -18.644711  0.616  0.010  0.000  0.028  0.000  0.000  0.000  0.000  0.000  0.652
   0.60302    -18.525710  0.612  0.010  0.000  0.032  0.000  0.000  0.000  0.000  0.000  0.654
   0.64071    -18.399228  0.608  0.012  0.000  0.036  0.000  0.000  0.000  0.000  0.000  0.656
   0.67840    -18.265289  0.604  0.014  0.000  0.040  0.000  0.000  0.000  0.000  0.000  0.656
   0.71609    -18.123998  0.600  0.014  0.000  0.044  0.000  0.000  0.000  0.000  0.000  0.658
   0.75378    -17.975347  0.596  0.016  0.000  0.048  0.000  0.000  0.000  0.000  0.000  0.660
   0.79147    -17.819421  0.592  0.018  0.000  0.052  0.000  0.000  0.000  0.000  0.000  0.662
   0.82916    -17.656294  0.586  0.020  0.000  0.058  0.000  0.000  0.000  0.000  0.000  0.664
   0.86684    -17.486035  0.582  0.022  0.000  0.062  0.000  0.000  0.000  0.000  0.000  0.666
   0.90453    -17.308746  0.576  0.022  0.000  0.068  0.000  0.000  0.000  0.000  0.000  0.668
   0.94222    -17.124511  0.572  0.024  0.000  0.074  0.000  0.000  0.000  0.000  0.000  0.670
   0.97991    -16.933472  0.566  0.026  0.000  0.078  0.000  0.000  0.000  0.000  0.000  0.672
   1.01760    -16.735787  0.562  0.028  0.000  0.084  0.000  0.000  0.000  0.000  0.000  0.674
   1.05529    -16.531622  0.556  0.030  0.000  0.090  0.000  0.000  0.000  0.000  0.000  0.676
   1.09298    -16.321200  0.552  0.032  0.000  0.096  0.000  0.000  0.000  0.000  0.000  0.678
   1.13067    -16.104842  0.546  0.034  0.000  0.100  0.000  0.000  0.000  0.000  0.000  0.682
   1.16836    -15.882987  0.542  0.036  0.000  0.106  0.000  0.000  0.000  0.000  0.000  0.684
   1.20604    -15.656249  0.540  0.038  0.000  0.110  0.000  0.000  0.000  0.000  0.000  0.688
   1.24373    -15.425588  0.538  0.038  0.000  0.116  0.000  0.000  0.000  0.000  0.000  0.692
   1.28142    -15.192599  0.538  0.040  0.000  0.118  0.000  0.000  0.000  0.000  0.000  0.696
   1.31911    -14.960086  0.540  0.040  0.000  0.120  0.000  0.000  0.000  0.000  0.000  0.700
   1.35680    -14.733473  0.548  0.040  0.000  0.118  0.000  0.000  0.000  0.000  0.000  0.706
   1.39449    -14.524723  0.562  0.038  0.000  0.112  0.000  0.000  0.000  0.000  0.000  0.714
   1.43218    -14.361093  0.586  0.034  0.000  0.102  0.000  0.000  0.000  0.000  0.000  0.722
   1.46987    -14.294381  0.600  0.032  0.000  0.094  0.000  0.000  0.000  0.000  0.000  0.726
   1.46987    -14.294381  0.600  0.032  0.000  0.094  0.000  0.000  0.000  0.000  0.000  0.726
   1.49170    -14.293265  0.600  0.032  0.000  0.094  0.000  0.000  0.000  0.000  0.000  0.726
   1.51353    -14.289927  0.598  0.032  0.000  0.094  0.000  0.000  0.000  0.000  0.000  0.726
   1.53537    -14.284351  0.598  0.032  0.000  0.096  0.000  0.000  0.000  0.000  0.000  0.726
   1.55720    -14.276549  0.598  0.034  0.000  0.096  0.000  0.000  0.000  0.000  0.000  0.726
   1.57903    -14.266507  0.598  0.034  0.000  0.096  0.000  0.000  0.000  0.000  0.000  0.726
   1.60087    -14.254238  0.596  0.034  0.000  0.096  0.000  0.000  0.000  0.000  0.000  0.726
   1.62270    -14.239754  0.596  0.036  0.000  0.096  0.000  0.000  0.000  0.000  0.000  0.726
   1.64453    -14.223022  0.594  0.036  0.000  0.096  0.000  0.000  0.000  0.000  0.000  0.728
   1.66637    -14.204056  0.594  0.038  0.000  0.096  0.000  0.000  0.000  0.000  0.000  0.728
   1.68820    -14.182861  0.592  0.038  0.000  0.096  0.000  0.000  0.000  0.000  0.000  0.728
   1.71003    -14.159443  0.590  0.040  0.000  0.098  0.000  0.000  0.000  0.000  0.000  0.728
   1.73187    -14.133797  0.590  0.042  0.000  0.098  0.000  0.000  0.000  0.000  0.000  0.728
   1.75370    -14.105936  0.588  0.042  0.000  0.098  0.000  0.000  0.000  0.000  0.000  0.728
   1.77553    -14.075850  0.586  0.044  0.000  0.098  0.000  0.000  0.000  0.000  0.000  0.728
   1.79737    -14.043522  0.584  0.046  0.000  0.100  0.000  0.000  0.000  0.000  0.000  0.728
   1.81920    -14.008976  0.582  0.048  0.000  0.100  0.000  0.000  0.000  0.000  0.000  0.730
   1.84103    -13.972208  0.580  0.050  0.000  0.100  0.000  0.000  0.000  0.000  0.000  0.730
   1.86287    -13.933218  0.578  0.052  0.000  0.102  0.000  0.000  0.000  0.000  0.000  0.730
   1.88470    -13.892039  0.574  0.054  0.000  0.102  0.000  0.000  0.000  0.000  0.000  0.730
   1.90653    -13.848606  0.572  0.056  0.000  0.102  0.000  0.000  0.000  0.000  0.000  0.730
   1.92837    -13.802973  0.570  0.058  0.000  0.104  0.000  0.000  0.000  0.000  0.000  0.732
   1.95020    -13.755110  0.566  0.062  0.000  0.104  0.000  0.000  0.000  0.000  0.000  0.732
   1.97203    -13.705055  0.564  0.064  0.000  0.106  0.000  0.000  0.000  0.000  0.000  0.732
   1.99387    -13.652781  0.560  0.066  0.000  0.106  0.000  0.000  0.000  0.000  0.000  0.732
   2.01570    -13.598303  0.556  0.070  0.000  0.108  0.000  0.000  0.000  0.000  0.000  0.734
   2.03753    -13.541619  0.554  0.072  0.000  0.108  0.000  0.000  0.000  0.000  0.000  0.734
   2.05937    -13.482737  0.550  0.076  0.000  0.110  0.000  0.000  0.000  0.000  0.000  0.734
   2.08120    -13.421654  0.546  0.078  0.000  0.110  0.000  0.000  0.000  0.000  0.000  0.734
   2.10303    -13.358390  0.542  0.082  0.000  0.112  0.000  0.000  0.000  0.000  0.000  0.736
   2.12487    -13.292924  0.538  0.086  0.000  0.112  0.000  0.000  0.000  0.000  0.000  0.736
   2.14670    -13.225268  0.534  0.088  0.000  0.114  0.000  0.000  0.000  0.000  0.000  0.736
   2.16853    -13.155448  0.530  0.092  0.000  0.114  0.000  0.000  0.000  0.000  0.000  0.738
   2.19037    -13.083480  0.526  0.096  0.000  0.116  0.000  0.000  0.000  0.000  0.000  0.738
   2.21220    -13.009354  0.522  0.100  0.000  0.116  0.000  0.000  0.000  0.000  0.000  0.738
   2.23403    -12.933069  0.518  0.104  0.000  0.118  0.000  0.000  0.000  0.000  0.000  0.740
   2.25587    -12.854665  0.512  0.108  0.000  0.120  0.000  0.000  0.000  0.000  0.000  0.740
   2.27770    -12.774172  0.508  0.112  0.000  0.120  0.000  0.000  0.000  0.000  0.000  0.740
   2.29953    -12.691904  0.504  0.116  0.000  0.122  0.000  0.000  0.000  0.000  0.000  0.742
   2.32137    -12.610432  0.498  0.122  0.000  0.122  0.000  0.000  0.000  0.000  0.000  0.742
   2.32137    -12.610432  0.498  0.122  0.000  0.122  0.000  0.000  0.000  0.000  0.000  0.742
   2.36496    -12.776847  0.502  0.140  0.000  0.096  0.000  0.000  0.000  0.000  0.000  0.738
   2.40856    -13.015454  0.502  0.150  0.000  0.082  0.000  0.000  0.000  0.000  0.000  0.732
   2.45215    -13.281664  0.500  0.154  0.000  0.072  0.000  0.000  0.000  0.000  0.000  0.726
   2.49575    -13.563378  0.500  0.156  0.000  0.064  0.000  0.000  0.000  0.000  0.000  0.720
   2.53934    -13.852913  0.502  0.154  0.000  0.060  0.000  0.000  0.000  0.000  0.000  0.714
   2.58294    -14.145272  0.504  0.150  0.000  0.056  0.000  0.000  0.000  0.000  0.000  0.708
   2.62653    -14.437175  0.508  0.144  0.000  0.052  0.000  0.000  0.000  0.000  0.000  0.704
   2.67013    -14.726361  0.512  0.138  0.000  0.048  0.000  0.000  0.000  0.000  0.000  0.700
   2.71372    -15.011256  0.518  0.132  0.000  0.046  0.000  0.000  0.000  0.000  0.000  0.696
   2.75732    -15.290733  0.522  0.126  0.000  0.042  0.000  0.000  0.000  0.000  0.000  0.692
   2.80091    -15.563878  0.530  0.118  0.000  0.040  0.000  0.000  0.000  0.000  0.000  0.688
   2.84451    -15.830039  0.536  0.112  0.000  0.038  0.000  0.000  0.000  0.000  0.000  0.684
   2.88810    -16.088665  0.542  0.104  0.000  0.034  0.000  0.000  0.000  0.000  0.000  0.682
   2.93170    -16.339346  0.548  0.098  0.000  0.032  0.000  0.000  0.000  0.000  0.000  0.678
   2.97529    -16.581737  0.556  0.090  0.000  0.030  0.000  0.000  0.000  0.000  0.000  0.676
   3.01889    -16.815523  0.562  0.084  0.000  0.028  0.000  0.000  0.000  0.000  0.000  0.672
   3.06248    -17.040476  0.568  0.076  0.000  0.026  0.000  0.000  0.000  0.000  0.000  0.670
   3.10608    -17.256384  0.574  0.070  0.000  0.024  0.000  0.000  0.000  0.000  0.000  0.668
   3.14967    -17.463055  0.580  0.064  0.000  0.022  0.000  0.000  0.000  0.000  0.000  0.666
   3.19327    -17.660301  0.586  0.058  0.000  0.020  0.000  0.000  0.000  0.000  0.000  0.664
   3.23686    -17.848064  0.592  0.052  0.000  0.018  0.000  0.000  0.000  0.000  0.000  0.662
   3.28046    -18.026175  0.596  0.046  0.000  0.016  0.000  0.000  0.000  0.000  0.000  0.660
   3.32405    -18.194571  0.602  0.042  0.000  0.014  0.000  0.000  0.000  0.000  0.000  0.658
   3.36765    -18.353129  0.606  0.036  0.000  0.012  0.000  0.000  0.000  0.000  0.000  0.656
   3.41124    -18.501772  0.612  0.032  0.000  0.010  0.000  0.000  0.000  0.000  0.000  0.654
   3.45484    -18.640406  0.616  0.028  0.000  0.010  0.000  0.000  0.000  0.000  0.000  0.652
   3.49843    -18.768999  0.620  0.024  0.000  0.008  0.000  0.000  0.000  0.000  0.000  0.652
   3.54203    -18.887493  0.624  0.020  0.000  0.006  0.000  0.000  0.000  0.000  0.000  0.650
   3.58562    -18.995830  0.626  0.016  0.000  0.006  0.000  0.000  0.000  0.000  0.000  0.648
   3.62922    -19.093966  0.630  0.014  0.000  0.004  0.000  0.000  0.000  0.000  0.000  0.648
   3.67281    -19.181848  0.632  0.010  0.000  0.004  0.000  0.000  0.000  0.000  0.000  0.646
   3.71641    -19.259484  0.636  0.008  0.000  0.002  0.000  0.000  0.000  0.000  0.000  0.646
   3.76000    -19.326820  0.638  0.006  0.000  0.002  0.000  0.000  0.000  0.000  0.000  0.646
   3.80360    -19.383840  0.640  0.004  0.000  0.002  0.000  0.000  0.000  0.000  0.000  0.644
   3.84719    -19.430517  0.640  0.002  0.000  0.000  0.000  0.000  0.000  0.000  0.000  0.644
   3.89079    -19.466834  0.642  0.002  0.000  0.000  0.000  0.000  0.000  0.000  0.000  0.644
   3.93438    -19.492793  0.642  0.000  0.000  0.000  0.000  0.000  0.000  0.000  0.000  0.644
   3.97798    -19.508369  0.644  0.000  0.000  0.000  0.000  0.000  0.000  0.000  0.000  0.644
   4.02157    -19.513560  0.644  0.000  0.000  0.000  0.000  0.000  0.000  0.000  0.000  0.644
 
# Band-Index    2
   4.02157     -7.612297  0.000  0.000  0.432  0.000  0.000  0.000  0.000  0.000  0.000  0.432
   3.97798     -7.606095  0.000  0.000  0.432  0.000  0.000  0.000  0.000  0.000  0.000  0.432
   3.93438     -7.587487  0.000  0.000  0.432  0.000  0.000  0.000  0.000  0.000  0.000  0.432
   3.89079     -7.556486  0.000  0.000  0.432  0.000  0.000  0.000  0.000  0.000  0.000  0.432
   3.84719     -7.513125  0.000  0.000  0.432  0.000  0.000  0.000  0.000  0.000  0.000  0.432
   3.80360     -7.457435  0.000  0.000  0.432  0.000  0.000  0.000  0.000  0.000  0.000  0.432
   3.76000     -7.389461  0.000  0.000  0.432  0.000  0.000  0.000  0.000  0.000  0.000  0.432
   3.71641     -7.309255  0.000  0.000  0.434  0.000  0.000  0.000  0.000  0.000  0.000  0.434
   3.67281     -7.216883  0.000  0.000  0.434  0.000  0.000  0.000  0.000  0.000  0.000  0.434
   3.62922     -7.112445  0.000  0.000  0.434  0.000  0.000  0.000  0.000  0.000  0.000  0.434
   3.58562     -6.995996  0.000  0.000  0.436  0.000  0.000  0.000  0.000  0.000  0.000  0.436
   3.54203     -6.867674  0.000  0.000  0.436  0.000  0.000  0.000  0.000  0.000  0.000  0.436
   3.49843     -6.727597  0.000  0.000  0.438  0.000  0.000  0.000  0.000  0.000  0.000  0.438
   3.45484     -6.575904  0.000  0.000  0.438  0.000  0.000  0.000  0.000  0.000  0.000  0.438
   3.41124     -6.412752  0.000  0.000  0.440  0.000  0.000  0.000  0.000  0.000  0.000  0.440
   3.36765     -6.316797  0.172  0.408  0.000  0.204  0.000  0.000  0.000  0.000  0.000  0.784
   3.32405     -6.635735  0.188  0.394  0.000  0.200  0.000  0.000  0.000  0.000  0.000  0.782
   3.28046     -6.954110  0.202  0.378  0.000  0.198  0.000  0.000  0.000  0.000  0.000  0.778
   3.23686     -7.270847  0.218  0.364  0.000  0.194  0.000  0.000  0.000  0.000  0.000  0.776
   3.19327     -7.584952  0.234  0.350  0.000  0.192  0.000  0.000  0.000  0.000  0.000  0.774
   3.14967     -7.895636  0.248  0.336  0.000  0.188  0.000  0.000  0.000  0.000  0.000  0.772
   3.10608     -8.202133  0.264  0.322  0.000  0.184  0.000  0.000  0.000  0.000  0.000  0.770
   3.06248     -8.503845  0.280  0.308  0.000  0.182  0.000  0.000  0.000  0.000  0.000  0.768
   3.01889     -8.800276  0.294  0.294  0.000  0.178  0.000  0.000  0.000  0.000  0.000  0.766
   2.97529     -9.090881  0.310  0.282  0.000  0.174  0.000  0.000  0.000  0.000  0.000  0.766
   2.93170     -9.375348  0.324  0.268  0.000  0.172  0.000  0.000  0.000  0.000  0.000  0.764
   2.88810     -9.653298  0.338  0.256  0.000  0.168  0.000  0.000  0.000  0.000  0.000  0.762
   2.84451     -9.924437  0.352  0.244  0.000  0.164  0.000  0.000  0.000  0.000  0.000  0.760
   2.80091    -10.188500  0.366  0.232  0.000  0.160  0.000  0.000  0.000  0.000  0.000  0.758
   2.75732    -10.445216  0.380  0.220  0.000  0.158  0.000  0.000  0.000  0.000  0.000  0.756
   2.71372    -10.694401  0.392  0.208  0.000  0.154  0.000  0.000  0.000  0.000  0.000  0.754
   2.67013    -10.935910  0.406  0.198  0.000  0.150  0.000  0.000  0.000  0.000  0.000  0.754
   2.62653    -11.169543  0.418  0.186  0.000  0.146  0.000  0.000  0.000  0.000  0.000  0.752
   2.58294    -11.395171  0.432  0.176  0.000  0.144  0.000  0.000  0.000  0.000  0.000  0.750
   2.53934    -11.612675  0.444  0.166  0.000  0.140  0.000  0.000  0.000  0.000  0.000  0.748
   2.49575    -11.821996  0.454  0.156  0.000  0.136  0.000  0.000  0.000  0.000  0.000  0.746
   2.45215    -12.022900  0.466  0.146  0.000  0.134  0.000  0.000  0.000  0.000  0.000  0.746
   2.40856    -12.215162  0.478  0.136  0.000  0.130  0.000  0.000  0.000  0.000  0.000  0.744
   2.36496    -12.397845  0.488  0.128  0.000  0.128  0.000  0.000  0.000  0.000  0.000  0.742
   2.32137    -12.541798  0.498  0.122  0.000  0.122  0.000  0.000  0.000  0.000  0.000  0.740
   2.32137    -12.541798  0.498  0.122  0.000  0.122  0.000  0.000  0.000  0.000  0.000  0.740
   2.29953    -12.467546  0.490  0.114  0.000  0.134  0.000  0.000  0.000  0.000  0.000  0.740
   2.27770    -12.406939  0.480  0.106  0.000  0.152  0.000  0.000  0.000  0.000  0.000  0.738
   2.25587    -12.363358  0.466  0.100  0.000  0.170  0.000  0.000  0.000  0.000  0.000  0.736
   2.23403    -12.336581  0.450  0.094  0.000  0.186  0.000  0.000  0.000  0.000  0.000  0.732
   2.21220    -12.325266  0.432  0.092  0.000  0.204  0.000  0.000  0.000  0.000  0.000  0.728
   2.19037    -12.327352  0.414  0.090  0.000  0.218  0.000  0.000  0.000  0.000  0.000  0.722
   2.16853    -12.340486  0.398  0.088  0.000  0.232  0.000  0.000  0.000  0.000  0.000  0.718
   2.14670    -12.362392  0.382  0.088  0.000  0.242  0.000  0.000  0.000  0.000  0.000  0.712
   2.12487    -12.391058  0.368  0.090  0.000  0.252  0.000  0.000  0.000  0.000  0.000  0.708
   2.10303    -12.424729  0.354  0.090  0.000  0.260  0.000  0.000  0.000  0.000  0.000  0.704
   2.08120    -12.461984  0.344  0.092  0.000  0.266  0.000  0.000  0.000  0.000  0.000  0.700
   2.05937    -12.501749  0.334  0.092  0.000  0.270  0.000  0.000  0.000  0.000  0.000  0.696
   2.03753    -12.543107  0.326  0.094  0.000  0.274  0.000  0.000  0.000  0.000  0.000  0.694
   2.01570    -12.585341  0.318  0.094  0.000  0.278  0.000  0.000  0.000  0.000  0.000  0.690
   1.99387    -12.627892  0.312  0.094  0.000  0.280  0.000  0.000  0.000  0.000  0.000  0.688
   1.97203    -12.670305  0.308  0.096  0.000  0.284  0.000  0.000  0.000  0.000  0.000  0.686
   1.95020    -12.712216  0.302  0.096  0.000  0.286  0.000  0.000  0.000  0.000  0.000  0.684
   1.92837    -12.753324  0.298  0.096  0.000  0.286  0.000  0.000  0.000  0.000  0.000  0.682
   1.90653    -12.793377  0.296  0.096  0.000  0.288  0.000  0.000  0.000  0.000  0.000  0.680
   1.88470    -12.832224  0.292  0.098  0.000  0.290  0.000  0.000  0.000  0.000  0.000  0.678
   1.86287    -12.869643  0.290  0.098  0.000  0.290  0.000  0.000  0.000  0.000  0.000  0.676
   1.84103    -12.905566  0.288  0.098  0.000  0.290  0.000  0.000  0.000  0.000  0.000  0.676
   1.81920    -12.939839  0.286  0.098  0.000  0.292  0.000  0.000  0.000  0.000  0.000  0.674
   1.79737    -12.972372  0.284  0.098  0.000  0.292  0.000  0.000  0.000  0.000  0.000  0.674
   1.77553    -13.003085  0.282  0.098  0.000  0.292  0.000  0.000  0.000  0.000  0.000  0.672
   1.75370    -13.031883  0.280  0.098  0.000  0.292  0.000  0.000  0.000  0.000  0.000  0.672
   1.73187    -13.058754  0.280  0.098  0.000  0.292  0.000  0.000  0.000  0.000  0.000  0.670
   1.71003    -13.083611  0.278  0.098  0.000  0.294  0.000  0.000  0.000  0.000  0.000  0.670
   1.68820    -13.106447  0.278  0.098  0.000  0.294  0.000  0.000  0.000  0.000  0.000  0.668
   1.66637    -13.127190  0.276  0.098  0.000  0.294  0.000  0.000  0.000  0.000  0.000  0.668
   1.64453    -13.145813  0.276  0.098  0.000  0.294  0.000  0.000  0.000  0.000  0.000  0.668
   1.62270    -13.162313  0.276  0.098  0.000  0.294  0.000  0.000  0.000  0.000  0.000  0.668
   1.60087    -13.176613  0.276  0.098  0.000  0.294  0.000  0.000  0.000  0.000  0.000  0.666
   1.57903    -13.188771  0.274  0.098  0.000  0.294  0.000  0.000  0.000  0.000  0.000  0.666
   1.55720    -13.198744  0.274  0.098  0.000  0.294  0.000  0.000  0.000  0.000  0.000  0.666
   1.53537    -13.206493  0.274  0.098  0.000  0.294  0.000  0.000  0.000  0.000  0.000  0.666
   1.51353    -13.212047  0.274  0.098  0.000  0.294  0.000  0.000  0.000  0.000  0.000  0.666
   1.49170    -13.215387  0.274  0.098  0.000  0.294  0.000  0.000  0.000  0.000  0.000  0.666
   1.46987    -13.216499  0.274  0.098  0.000  0.294  0.000  0.000  0.000  0.000  0.000  0.666
   1.46987    -13.216499  0.274  0.098  0.000  0.294  0.000  0.000  0.000  0.000  0.000  0.666
   1.43218    -13.144091  0.288  0.096  0.000  0.286  0.000  0.000  0.000  0.000  0.000  0.670
   1.39449    -12.963175  0.310  0.092  0.000  0.276  0.000  0.000  0.000  0.000  0.000  0.680
   1.35680    -12.725561  0.324  0.090  0.000  0.272  0.000  0.000  0.000  0.000  0.000  0.686
   1.31911    -12.458584  0.330  0.090  0.000  0.272  0.000  0.000  0.000  0.000  0.000  0.692
   1.28142    -12.174290  0.330  0.092  0.000  0.276  0.000  0.000  0.000  0.000  0.000  0.698
   1.24373    -11.878211  0.328  0.094  0.000  0.280  0.000  0.000  0.000  0.000  0.000  0.702
   1.20604    -11.573338  0.324  0.096  0.000  0.288  0.000  0.000  0.000  0.000  0.000  0.708
